time,energy
0.0,0.9999999999999997
0.005,0.9961242763037103
0.01,0.994115698721529
0.015,0.9943306899997799
0.02,0.996659936013929
0.025,1.0005651675282048
0.03,1.005209345083687
0.035,1.0096472248762995
0.04,1.0130303885006433
0.045,1.014779591807619
0.05,1.0146874984534733
0.055,1.0129333669081448
0.06,1.0100129731137106
0.065,1.0066064002218185
0.07,1.0034187330357622
0.075,1.0010316920286397
0.08,0.9997979452130161
0.085,0.9997966843877104
0.09,1.0008529576135479
0.095,1.0026084415465448
0.1,1.0046212431249861
0.105,1.0064687827117498
0.11,1.007830812798725
0.115,1.0085375362439821
0.12,1.0085779943367417
0.125,1.0080736078687556
0.13,1.00722873672712
0.135,1.0062731681422352
0.14,1.0054105089002026
0.145,1.0047824790387532
0.15,1.0044535917008581
0.155,1.0044152541222702
0.16,1.0046042109883275
0.165,1.0049281677109851
0.17,1.0052914371464925
0.17500000000000002,1.005615091159195
0.18,1.0058486173765093
0.185,1.0059726878260995
0.19,1.005994709188349
0.195,1.0059399940188842
0.2,1.0058416182204062
0.20500000000000002,1.005731500790453
0.21,1.0056342785221541
0.215,1.0055644916550934
0.22,1.005526718162735
0.225,1.0055177490316958
0.23,1.0055297163476884
0.23500000000000001,1.005553205913166
0.24,1.005579689239223
0.245,1.0056029700266969
0.25,1.0056196562252602
0.255,1.005628880883531
0.26,1.0056315872099557
0.265,1.0056296832011726
0.27,1.0056252951171276
0.275,1.0056202469429576
0.28,1.005615797457536
0.28500000000000003,1.005612597523828
0.29,1.0056107943828856
0.295,1.00561020350127
0.3,1.0056104826196512
0.305,1.0056112664513035
0.31,1.0056122451035145
0.315,1.0056131891010598
0.32,1.0056139365383934
0.325,1.0056143634751002
0.33,1.0056143585546964
0.335,1.0056138184988421
0.34,1.0056126737404671
0.34500000000000003,1.0056109437136658
0.35000000000000003,1.0056088099120628
0.355,1.0056066830878
0.36,1.0056052313760433
0.365,1.00560533242247
0.37,1.00560791911486
0.375,1.0056137088543633
0.38,1.0056228412772459
0.385,1.0056344949919966
0.39,1.00564660016779
0.395,1.0056557948790494
0.4,1.0056577701307565
0.405,1.0056480948877655
0.41000000000000003,1.0056235010683605
0.41500000000000004,1.0055834488658701
0.42,1.005531615785527
0.425,1.0054768097432192
0.43,1.0054327606518325
0.435,1.0054163545080723
0.44,1.0054441704590744
0.445,1.005527646860551
0.45,1.0056677557549967
0.455,1.0058505639876008
0.46,1.0060453233976405
0.465,1.0062065905454887
0.47000000000000003,1.0062812247313055
0.47500000000000003,1.0062199744617124
0.48,1.005991922438041
0.485,1.0055986599510442
0.49,1.0050841433165967
0.495,1.0045361752898663
0.5,1.0040766287253566
0.505,1.0038398797500958
0.51,1.0039420733803521
0.515,1.0044470907929408
0.52,1.0053374952216143
0.525,1.0064993917437344
0.53,1.00772843609028
0.535,1.0087601184675656
0.54,1.0093215787475398
0.545,1.009195881708878
0.55,1.008284595540344
0.555,1.0066523425383824
0.56,1.0045388645208906
0.5650000000000001,1.0023302411199289
0.5700000000000001,1.0004902149054589
0.5750000000000001,0.9994630401018216
0.58,0.9995681783007602
0.585,1.0009118744139098
0.59,1.0033393496432015
0.595,1.0064436889971502
0.6,1.009634845210869
0.605,1.0122574147329402
0.61,1.0137327043961497
0.615,1.0136927177060986
0.62,1.0120735205651468
0.625,1.00914355187195
0.63,1.0054571808310209
0.635,1.0017416672287567
0.64,0.9987421481927735
0.645,0.997060053084135
0.65,0.9970225209529988
0.655,0.9986132604987313
0.66,1.0014805912575493
0.665,1.005019871973607
0.67,1.0085098847843224
0.675,1.0112704462805093
0.68,1.012804535919584
0.685,1.0128933169679881
0.6900000000000001,1.0116249603667828
0.6950000000000001,1.009354703472942
0.7000000000000001,1.006609765206497
0.705,1.0039646039803953
0.71,1.0019169057368695
0.715,1.000791941785241
0.72,1.0006938454275307
0.725,1.0015097191592048
0.73,1.0029597329487272
0.735,1.004676629454374
0.74,1.006293349925487
0.745,1.0075183799670082
0.75,1.0081839735685658
0.755,1.008260686488213
0.76,1.0078402650231275
0.765,1.0070957712899673
0.77,1.0062315123847843
0.775,1.0054354972050952
0.78,1.0048443206893327
0.785,1.0045257604686089
0.79,1.0044793870919977
0.795,1.0046513910318544
0.8,1.0049574208156784
0.805,1.005306742012559
0.81,1.0056221853741159
0.8150000000000001,1.0058525311905016
0.8200000000000001,1.0059764375509148
0.8250000000000001,1.0059991178963918
0.8300000000000001,1.0059442967789758
0.835,1.0058443938515418
0.84,1.0057315256058559
0.845,1.0056310526434569
0.85,1.0055583686563707
0.855,1.0055187132104566
0.86,1.005509177417032
0.865,1.0055218212228496
0.87,1.0055468904945895
0.875,1.0055754033254405
0.88,1.0056007398729603
0.885,1.0056192076449626
0.89,1.0056297932066185
0.895,1.0056334259474138
0.9,1.0056320820180693
0.905,1.0056279822934842
0.91,1.0056230298941078
0.915,1.0056185274031686
0.92,1.0056151354820573
0.925,1.0056129925184567
0.93,1.0056119066144065
0.935,1.0056115467385736
0.9400000000000001,1.005611587047596
0.9450000000000001,1.0056117865963756
0.9500000000000001,1.0056120089176432
0.9550000000000001,1.0056121993096891
0.96,1.005612342421478
0.965,1.00561242103361
0.97,1.0056123914793427
0.975,1.0056121841438956
0.98,1.0056117302411693
0.985,1.005611009112505
0.99,1.0056101037880654
0.995,1.0056092468869424
1.0,1.0056088351721988
1.0050000000000001,1.005609391077008
1.01,1.0056114555593179
1.0150000000000001,1.005615410572917
1.02,1.0056212514702132
1.025,1.0056283571234625
1.03,1.0056353322061191
1.035,1.005640012317153
1.04,1.005639717238614
1.045,1.0056318009955478
1.05,1.0056144758991956
1.055,1.0055877880524462
1.06,1.0055545135526762
1.065,1.0055206598778315
1.07,1.0054952347051753
1.075,1.0054890203702573
1.08,1.0055122849313525
1.085,1.0055716581559317
1.09,1.0056667508270347
1.095,1.005787408238261
1.1,1.0059126496135093
1.105,1.0060122454456837
1.11,1.0060514581748514
1.115,1.005998732118683
1.12,1.005835184092627
1.125,1.0055638364998385
1.1300000000000001,1.0052159348827565
1.135,1.0048516824823404
1.1400000000000001,1.004553490733143
1.145,1.004411390032059
1.1500000000000001,1.0045023360178016
1.155,1.0048673184469743
1.16,1.0054918178160492
1.165,1.0062956440476385
1.17,1.0071371046946704
1.175,1.0078337240390414
1.18,1.0081977744025972
1.185,1.008080543789002
1.19,1.0074156985085072
1.195,1.0062504641644399
1.2,1.0047544695159984
1.205,1.0032001630057399
1.21,1.0019151012730372
1.215,1.0012137396012823
1.22,1.0013227593438097
1.225,1.0023175639509143
1.23,1.0040870041505434
1.235,1.006338278880366
1.24,1.008645140839142
1.245,1.010531970732037
1.25,1.0115766139505773
1.2550000000000001,1.0115087479417444
1.26,1.0102798844346672
1.2650000000000001,1.0080864945035508
1.27,1.0053381701975264
1.2750000000000001,1.0025757787370306
1.28,1.0003569657601747
1.285,0.9991348853304702
1.29,0.9991583468125953
1.295,1.0004169166682664
1.3,1.0026439612988198
1.305,1.0053767950013044
1.31,1.008059506995208
1.315,1.0101641193379598
1.32,1.0113019242372134
1.325,1.0112999898497972
1.33,1.0102269218469442
1.335,1.0083645385935274
1.34,1.0061348859839931
1.345,1.0040018146647136
1.35,1.0023709287625155
1.355,1.0015103127940777
1.36,1.0015078399226973
1.365,1.002271094857947
1.37,1.003565663474249
1.375,1.0050792856234534
1.3800000000000001,1.0064949170246533
1.385,1.007555745719931
1.3900000000000001,1.0081091306547216
1.395,1.0081228464803451
1.4000000000000001,1.007674075817092
1.405,1.0069175321788248
1.41,1.006042692884593
1.415,1.0052308959075584
1.42,1.0046212877152536
1.425,1.0042911430328598
1.43,1.0042520119777352
1.435,1.0044595256494018
1.44,1.004832245361267
1.445,1.0052739871361227
1.45,1.005694492725032
1.455,1.0060247511190716
1.46,1.0062251620861662
1.465,1.006286559704892
1.47,1.0062255023286573
1.475,1.0060760018478756
1.48,1.005880010760713
1.485,1.005678646127923
1.49,1.0055055059204858
1.495,1.0053827270877647
1.5,1.0053198030920258
1.5050000000000001,1.0053147147867492
1.51,1.0053566634472413
1.5150000000000001,1.0054296133034453
1.52,1.0055159118799417
1.5250000000000001,1.0055994103139114
1.53,1.0056677063622317
1.5350000000000001,1.0057133423006734
1.54,1.0057339800030167
1.545,1.0057317261636225
1.55,1.0057118792898796
1.555,1.005681411367788
1.56,1.0056474831449063
1.565,1.005616232349854
1.57,1.0055919846038317
1.575,1.0055769365184808
1.58,1.005571268671678
1.585,1.0055735782097028
1.59,1.0055814856254077
1.595,1.0055922690280958
1.6,1.0056034061803572
1.605,1.005612949137962
1.61,1.0056197060527763
1.615,1.0056232482586396
1.62,1.0056237901889626
1.625,1.0056220015070565
1.6300000000000001,1.0056188060882787
1.635,1.005615205748013
1.6400000000000001,1.0056121444977066
1.645,1.0056104086963447
1.6500000000000001,1.0056105457393847
1.655,1.0056127826231853
1.6600000000000001,1.0056169365047678
1.665,1.0056223294676228
1.67,1.0056277430330425
1.675,1.0056314659654269
1.68,1.005631492170581
1.685,1.0056259060743102
1.69,1.0056134473939662
1.695,1.0055941796759902
1.7,1.0055701106087294
1.705,1.0055455490683487
1.71,1.0055269616754028
1.715,1.0055221364507216
1.72,1.0055385882430978
1.725,1.0055813446167141
1.73,1.0056504989529773
1.735,1.0057391487893281
1.74,1.0058324719354292
1.745,1.00590865044511
1.75,1.005942078749169
1.7550000000000001,1.0059087860967324
1.76,1.0057933367667902
1.7650000000000001,1.0055957916555167
1.77,1.005336823363145
1.7750000000000001,1.005058983404796
1.78,1.0048225786549003
1.7850000000000001,1.0046956573077308
1.79,1.004739097199362
1.795,1.0049894212072719
1.8,1.0054432975423406
1.805,1.0060482510071018
1.81,1.0067035558542958
1.815,1.0072734861287571
1.82,1.007612286591209
1.825,1.0075969660437671
1.83,1.0071611295672023
1.835,1.006321444577444
1.84,1.0051886781684995
1.845,1.0039578199952597
1.85,1.0028762969692842
1.855,1.0021947755786438
1.86,1.0021101865112785
1.865,1.0027139396835891
1.87,1.0039586691776452
1.875,1.0056537729022272
1.8800000000000001,1.0074939054137504
1.885,1.0091167471010232
1.8900000000000001,1.0101787284536714
1.895,1.0104319895012246
1.9000000000000001,1.0097843237284572
1.905,1.0083268871943287
1.9100000000000001,1.006321547196598
1.915,1.004149264719909
1.92,1.002230468803069
1.925,1.0009354866631308
1.93,1.0005058105272213
1.935,1.0010045085902834
1.94,1.002307002146306
1.945,1.0041335582846012
1.95,1.0061147654523732
1.955,1.0078735872996938
1.96,1.0091042654230762
1.965,1.009630092009098
1.97,1.0094282430868124
1.975,1.0086186343724477
1.98,1.0074227012472414
1.985,1.0061047656491555
1.99,1.0049116232343207
1.995,1.004024691783079
2.0,1.0035342309844737
2.005,1.0034384055660885
2.0100000000000002,1.0036633250703069
2.015,1.0040954374123638
2.02,1.0046158526312505
2.025,1.0051274530696217
2.0300000000000002,1.0055692446820081
2.035,1.005916987612443
2.04,1.0061732594014334
2.045,1.006352618874815
2.05,1.0064679388839937
2.055,1.0065224451063608
2.06,1.0065092775563518
2.065,1.0064174886515127
2.07,1.0062412412043105
2.075,1.00598815688868
2.08,1.0056833896172477
2.085,1.005367699677083
2.09,1.0050899307935053
2.095,1.004896132144873
2.1,1.004818574882422
2.105,1.0048678543764937
2.11,1.0050302583267459
2.115,1.0052710025397895
2.12,1.0055423019504124
2.125,1.005794026137671
2.13,1.0059841859061343
2.1350000000000002,1.006086773340864
2.14,1.006095370630613
2.145,1.0060221422525506
2.15,1.005892977937501
2.1550000000000002,1.0057403681872492
2.16,1.0055959094019555
2.165,1.0054841458348056
2.17,1.0054188860897353
2.1750000000000003,1.00540238478609
2.18,1.0054270679233068
2.185,1.0054789694392487
2.19,1.0055418218400853
2.195,1.005600803955421
2.2,1.005645222907626
2.205,1.0056697871525242
2.21,1.005674502552539
2.215,1.0056635090826016
2.22,1.0056433277617427
2.225,1.0056210033666835
2.23,1.0056025381488392
2.235,1.005591861633395
2.24,1.005590419300656
2.245,1.0055973257156845
2.25,1.0056099363965532
2.255,1.0056246520337608
2.2600000000000002,1.0056377710468907
2.265,1.0056462380283495
2.27,1.0056481817249383
2.275,1.0056431851787624
2.2800000000000002,1.0056322753651217
2.285,1.0056176571900797
2.29,1.0056022467897274
2.295,1.005589082328671
2.3000000000000003,1.0055807069834402
2.305,1.0055786272805372
2.31,1.0055829479505691
2.315,1.0055922689008814
2.32,1.0056038982922737
2.325,1.0056143874384946
2.33,1.0056203310525325
2.335,1.0056193074348911
2.34,1.0056107697067822
2.345,1.0055966576086568
2.35,1.0055814981227629
2.355,1.0055718182961164
2.36,1.005574812975314
2.365,1.005596387049445
2.37,1.0056389003311874
2.375,1.0056991375216295
2.38,1.0057671454092325
2.3850000000000002,1.005826562215943
2.39,1.005856864120878
2.395,1.005837563158098
2.4,1.0057538548449898
2.4050000000000002,1.0056026390195998
2.41,1.0053973780559093
2.415,1.0051700851623941
2.42,1.0049689946047569
2.4250000000000003,1.0048512152077413
2.43,1.0048708408147333
2.435,1.0050643734725422
2.44,1.0054365703078654
2.445,1.0059505596384253
2.45,1.0065259376266353
2.455,1.0070473671766198
2.46,1.0073840274750487
2.465,1.0074174775818565
2.47,1.0070727344433301
2.475,1.0063453937628664
2.48,1.005317151570879
2.485,1.0041535487397388
2.49,1.0030811375045219
2.495,1.0023459995145054
2.5,1.0021605963864815
2.505,1.0026500104840208
2.5100000000000002,1.0038104987213134
2.515,1.0054921122469223
2.52,1.0074128090808325
2.525,1.0092047159375133
2.5300000000000002,1.0104854326698325
2.535,1.0109404047038164
2.54,1.0103982711608137
2.545,1.0088810493986349
2.5500000000000003,1.0066154207765254
2.555,1.0039994960385143
2.56,1.001529508374398
2.565,0.9997005347761424
2.57,0.9989021726302112
2.575,0.9993322787618273
2.58,1.0009486794076392
2.585,1.003470765061653
2.59,1.0064318838594317
2.595,1.0092720111312259
2.6,1.011451015172758
2.605,1.0125581404734836
2.61,1.0123941937665415
2.615,1.0110091075082077
2.62,1.0086875657056886
2.625,1.0058868288868963
2.63,1.0031411310376297
2.6350000000000002,1.000953752363987
2.64,0.999699707634062
2.645,0.999558728348932
2.65,1.0004908322455155
2.6550000000000002,1.0022571248497159
2.66,1.0044788263766107
2.665,1.006719981532161
2.67,1.0085753915536528
2.6750000000000003,1.009745597087685
2.68,1.0100848525010029
2.685,1.0096147722393871
2.69,1.0085040276698998
2.695,1.0070213951449676
2.7,1.0054741957964386
2.705,1.0041459244236426
2.71,1.0032455633896535
2.715,1.002877312541129
2.72,1.0030343042004222
2.725,1.0036145672805452
2.73,1.004453201656755
2.735,1.0053622183170197
2.74,1.0061691014961074
2.745,1.0067466671968135
2.75,1.0070296442910178
2.755,1.0070167912675185
2.7600000000000002,1.0067604782960422
2.765,1.0063478814405131
2.77,1.0058789187092347
2.775,1.005445798797319
2.7800000000000002,1.0051178243650307
2.785,1.0049333353680998
2.79,1.004898876682498
2.795,1.0049942298353214
2.8000000000000003,1.0051811020116153
2.805,1.0054130701106205
2.81,1.0056447242342634
2.815,1.005838632618362
2.82,1.0059695206663535
2.825,1.006025721641421
2.83,1.0060083977600103
2.835,1.005929221254608
2.84,1.0058071928447456
2.845,1.0056651471174254
2.85,1.0055263396381637
2.855,1.0054113909592357
2.86,1.005335799164217
2.865,1.005308209192253
2.87,1.0053296069338062
2.875,1.0053935519996282
2.88,1.0054874560378213
2.8850000000000002,1.0055947612314529
2.89,1.005697708574209
2.895,1.0057802534232496
2.9,1.0058306296549082
2.9050000000000002,1.0058431087458968
2.91,1.0058186446950128
2.915,1.005764310963617
2.92,1.0056916730819605
2.9250000000000003,1.005614445637869
2.93,1.0055459090529513
2.935,1.0054965842777348
2.94,1.0054725827287307
2.945,1.0054748891467475
2.95,1.0054996374662752
2.955,1.0055392496380922
2.96,1.0055841627787843
2.965,1.0056247934107942
2.97,1.0056533823700597
2.975,1.0056654173304105
2.98,1.0056604195942285
2.985,1.005641984947556
2.99,1.0056170688428654
2.995,1.0055945980917411
3.0,1.0055835774532573
3.005,1.005590945411422
3.0100000000000002,1.0056195187430295
3.015,1.0056664371123138
3.02,1.0057225488662291
3.025,1.0057731296293113
3.0300000000000002,1.0058001613455236
3.035,1.0057861068470677
3.04,1.005718717491228
3.045,1.0055959803378747
3.0500000000000003,1.0054299620386458
3.055,1.0052481767567225
3.06,1.0050913174714071
3.065,1.0050068048472065
3.0700000000000003,1.005038582854516
3.075,1.0052147574111985
3.08,1.0055357516886567
3.085,1.0059662962556593
3.09,1.0064344673998284
3.095,1.006839948385504
3.1,1.0070717578276291
3.105,1.0070331838328537
3.11,1.0066691510961534
3.115,1.0059894445394182
3.12,1.005080797683446
3.125,1.0041022630815961
3.13,1.0032615233137583
3.1350000000000002,1.002774356974072
3.14,1.0028143444228708
3.145,1.0034637943801812
3.15,1.004678537450721
3.1550000000000002,1.0062778102566485
3.16,1.0079658068255664
3.165,1.0093843446228015
3.17,1.0101880320574406
3.1750000000000003,1.0101263736731647
3.18,1.0091134321969002
3.185,1.0072664151791826
3.19,1.0049002291350984
3.1950000000000003,1.002474704423698
3.2,1.0005027098505739
3.205,0.9994378946972402
3.21,0.9995674609473645
3.215,1.0009361070906355
3.22,1.0033214442021672
3.225,1.0062698206035143
3.23,1.0091871987102274
3.235,1.0114660325890485
3.24,1.012619549724635
3.245,1.0123920659013637
3.25,1.010818901562872
3.255,1.0082210764950976
3.2600000000000002,1.0051354272210564
3.265,1.0021962550633703
3.27,0.9999961682409493
3.275,0.9989585181689127
3.2800000000000002,0.9992506024966071
3.285,1.00075652719255
3.29,1.0031139930806843
3.295,1.0058040567467452
3.3000000000000003,1.008270913329689
3.305,1.0100428113198952
3.31,1.010826531867028
3.315,1.0105557457159149
3.3200000000000003,1.0093856766299414
3.325,1.0076395963159412
3.33,1.0057234629155367
3.335,1.0040310185665589
3.34,1.0028617992728563
3.345,1.0023692619371367
3.35,1.0025473868952286
3.355,1.0032541921272173
3.36,1.0042621405877334
3.365,1.0053203471351717
3.37,1.0062126558774045
3.375,1.006798764621878
3.38,1.0070313722822528
3.3850000000000002,1.0069490478824434
3.39,1.0066503879610518
3.395,1.0062587081535779
3.4,1.0058873947495244
3.4050000000000002,1.0056142967971395
3.41,1.0054699763989732
3.415,1.005440404457731
3.42,1.005480946228806
3.4250000000000003,1.0055360936162134
3.43,1.0055587728737823
3.435,1.0055240917897943
3.44,1.005434590588896
3.4450000000000003,1.005316705804294
3.45,1.0052105163667884
3.455,1.0051563588573966
3.46,1.0051823031877385
3.465,1.0052958129724934
3.47,1.0054814784349213
3.475,1.005704956613318
3.48,1.00592165723078
3.485,1.0060876491789577
3.49,1.0061699329063816
3.495,1.0061536269442473
3.5,1.0060445744339293
3.505,1.0058670971576915
3.5100000000000002,1.0056577896129693
3.515,1.005457083456523
3.52,1.0053006609211095
3.525,1.0052126265219439
3.5300000000000002,1.0052017565988347
3.535,1.005261320475792
3.54,1.0053721231661579
3.545,1.0055077534407888
3.5500000000000003,1.005640663010751
3.555,1.0057476949030697
3.56,1.0058139776796273
3.565,1.0058345982852508
3.5700000000000003,1.0058140212579445
3.575,1.0057637038068235
3.58,1.0056986694882792
3.585,1.00563390562674
3.59,1.0055813531705717
3.595,1.0055480163297525
3.6,1.0055354090011843
3.605,1.0055402518258507
3.61,1.0055560969079884
3.615,1.0055754196039204
3.62,1.0055916843221244
3.625,1.005600949403715
3.63,1.0056026994820322
3.6350000000000002,1.0055997551472686
3.64,1.0055972859890612
3.645,1.0056011255002628
3.65,1.0056157378474115
3.6550000000000002,1.0056422974684658
3.66,1.0056773883586896
3.665,1.005712784000906
3.67,1.0057366103454497
3.6750000000000003,1.0057359203329055
3.68,1.005700346841744
3.685,1.005626116453255
3.69,1.0055193970306342
3.6950000000000003,1.0053978311041938
3.7,1.0052892724820959
3.705,1.0052272409582772
3.71,1.005243399417682
3.715,1.0053582969488013
3.72,1.005572478162992
3.725,1.0058605543046486
3.73,1.0061707147675467
3.735,1.0064312908296886
3.74,1.0065644179979318
3.745,1.0065048553330065
3.75,1.0062200851212768
3.755,1.005726514783356
3.7600000000000002,1.005096468673022
3.765,1.004452002968104
3.77,1.003944346660116
3.775,1.0037214757640704
3.7800000000000002,1.003890095336943
3.785,1.0044810651374378
3.79,1.0054280726689995
3.795,1.0065675388688473
3.8000000000000003,1.0076633885067972
3.805,1.0084542261009346
3.81,1.0087140623045303
3.815,1.008312786602374
3.8200000000000003,1.0072606831478332
3.825,1.005723400612881
3.83,1.0039998643594592
3.835,1.002464476684962
