time,energy
0.0,0.9999999999999999
0.005,0.9961698274652405
0.01,0.994299201046813
0.015,0.9947192320561158
0.02,0.9972833081497875
0.025,1.001411153678445
0.03,1.0062271084295582
0.035,1.0107579065924777
0.04,1.014142573305392
0.045,1.015806379986489
0.05,1.015561745091241
0.055,1.0136182124698083
0.06,1.0105059318485465
0.065,1.0069367073836606
0.07,1.0036390434593865
0.075,1.0012062696988806
0.08,0.9999899865585207
0.085,1.0000573178386964
0.09,1.0012138407259006
0.095,1.003078925594849
0.1,1.0051900373563087
0.105,1.0071091608766833
0.11,1.0085078351901167
0.115,1.0092155892540573
0.12,1.0092271551299188
0.125,1.008673822443432
0.13,1.0077714085723926
0.135,1.00676034050235
0.14,1.0058522656439368
0.145,1.0051934195056633
0.15,1.0048492447900848
0.155,1.0048091274976996
0.16,1.0050058949589846
0.165,1.0053426111072894
0.17,1.005719253934025
0.17500000000000002,1.0060535865063356
0.18,1.0062931559078812
0.185,1.006418054064495
0.19,1.006436202166569
0.195,1.0063741190647733
0.2,1.0062663559479887
0.20500000000000002,1.0061462227109952
0.21,1.0060394290303503
0.215,1.0059611676351567
0.22,1.005916258689495
0.225,1.0059014113586233
0.23,1.0059084734456323
0.23500000000000001,1.0059276653234543
0.24,1.0059501087797336
0.245,1.0059693345250604
0.25,1.005981779229801
0.255,1.0059865026178874
0.26,1.0059844508175797
0.265,1.0059775820940076
0.27,1.0059680927017438
0.275,1.005957875149123
0.28,1.0059482424179507
0.28500000000000003,1.0059398802128252
0.29,1.0059329520484606
0.295,1.005927275289725
0.3,1.0059225006065386
0.305,1.0059182517406016
0.31,1.0059142078288748
0.315,1.0059101309409353
0.32,1.0059058545183168
0.325,1.005901254137221
0.33,1.0058962218367797
0.335,1.0058906607757396
0.34,1.0058845094297613
0.34500000000000003,1.0058777947132531
0.35000000000000003,1.0058707020701252
0.355,1.0058636390890232
0.36,1.0058572600297762
0.365,1.0058524154442192
0.37,1.0058499980331104
0.375,1.0058506763662645
0.38,1.00585454269906
0.385,1.005860745695871
0.39,1.0058672233139467
0.395,1.005870679787726
0.4,1.0058669452410935
0.405,1.0058518011742765
0.41000000000000003,1.0058222437634918
0.41500000000000004,1.0057780000144478
0.42,1.0057229406667334
0.425,1.0056658993550172
0.43,1.0056203716676033
0.435,1.0056026862369702
0.44,1.0056285408434922
0.445,1.0057082584457853
0.45,1.0058416574648408
0.455,1.0060139048793626
0.46,1.006193952915725
0.465,1.0063369854340045
0.47000000000000003,1.0063916246027322
0.47500000000000003,1.006311505505889
0.48,1.0060694098808396
0.485,1.005670805730951
0.49,1.005162801954614
0.495,1.0046346093079377
0.5,1.0042068536142288
0.505,1.0040094791686323
0.51,1.0041511162029095
0.515,1.0046859385116549
0.52,1.0055862821500632
0.525,1.0067297491769958
0.53,1.0079076184287366
0.535,1.0088571338808294
0.54,1.0093143418320734
0.545,1.0090779371902823
0.55,1.008069757446742
0.555,1.0063757596835259
0.56,1.0042535906213699
0.5650000000000001,1.002099286288515
0.5700000000000001,1.0003751151291835
0.5750000000000001,0.9995109624215851
0.58,0.9998002237368044
0.585,1.0013153384429456
0.59,1.003866152198724
0.595,1.0070160451986392
0.6,1.0101577237728345
0.605,1.0126357529167107
0.61,1.0138900934917918
0.615,1.0135876729876305
0.62,1.011709701350399
0.625,1.0085714018230036
0.63,1.0047662071088428
0.635,1.0010445907660996
0.64,0.9981539740151323
0.645,0.9966762962511264
0.65,0.9969010858686329
0.655,0.9987637304631198
0.66,1.0018631021710263
0.665,1.0055536823990925
0.67,1.0090896908640323
0.675,1.011786896757311
0.68,1.0131646323960093
0.685,1.0130365870102593
0.6900000000000001,1.011532382075366
0.6950000000000001,1.0090490512305847
0.7000000000000001,1.0061479234997774
0.705,1.0034240262658085
0.71,1.0013794309581485
0.715,1.0003284380895365
0.72,1.0003526392170483
0.725,1.0013106740262303
0.73,1.002894469051289
0.735,1.0047140540312616
0.74,1.0063886887526508
0.745,1.0076234312997978
0.75,1.0082563856374183
0.755,1.0082705930354605
0.76,1.007773417213827
0.765,1.0069531611675289
0.77,1.006026197260757
0.775,1.0051877742946236
0.78,1.0045765193214466
0.785,1.00425774847275
0.79,1.004225520387178
0.795,1.0044191895579193
0.8,1.004747842427952
0.805,1.0051156307843412
0.81,1.0054423305677669
0.8150000000000001,1.0056757835586922
0.8200000000000001,1.0057954535606133
0.8250000000000001,1.0058084860967305
0.8300000000000001,1.0057409895124974
0.835,1.0056276395870722
0.84,1.0055022889470606
0.845,1.005391336625893
0.85,1.005310528741219
0.855,1.005264914547353
0.86,1.005251058319212
0.865,1.005260364425933
0.87,1.0052824608401496
0.875,1.0053078897533219
0.88,1.0053297386453652
0.885,1.00534419646973
0.89,1.0053502651247272
0.895,1.005348971131966
0.9,1.005342420708567
0.905,1.0053329610675124
0.91,1.0053225965078196
0.915,1.00531269797695
0.92,1.0053039638513412
0.925,1.005296546963136
0.93,1.0052902552502991
0.935,1.0052847502744173
0.9400000000000001,1.0052796964766062
0.9450000000000001,1.0052748434075651
0.9500000000000001,1.0052700461069337
0.9550000000000001,1.0052652423728632
0.96,1.0052604102609528
0.965,1.0052555271068377
0.97,1.0052505455083576
0.975,1.0052453943631254
0.98,1.0052400056350097
0.985,1.0052343605820975
0.99,1.005228542901487
0.995,1.0052227810078238
1.0,1.0052174584743216
1.0050000000000001,1.0052130722760024
1.01,1.005210124998699
1.0150000000000001,1.0052089512425022
1.02,1.005209500029107
1.025,1.0052111212898016
1.03,1.0052124291812592
1.035,1.0052113286819528
1.04,1.0052052839887067
1.045,1.0051918689129438
1.05,1.0051695681482347
1.055,1.0051387015209725
1.06,1.0051022412788746
1.065,1.0050662167647677
1.07,1.0050393889575582
1.075,1.0050319623261499
1.08,1.005053298336579
1.085,1.0051088880541672
1.09,1.0051971763498875
1.095,1.005307116945064
1.1,1.0054174653593742
1.105,1.005498683889104
1.11,1.005517882813774
1.115,1.0054464798044227
1.12,1.005269351437616
1.125,1.0049933992691547
1.1300000000000001,1.0046529371380024
1.135,1.0043093909384977
1.1400000000000001,1.0040436485463982
1.145,1.0039409816794933
1.1500000000000001,1.004070526003818
1.155,1.0044633745437266
1.16,1.0050948049409796
1.165,1.005876437513862
1.17,1.006662829811665
1.175,1.0072741498022528
1.18,1.0075325931169214
1.185,1.007306009321727
1.19,1.0065489238630931
1.195,1.0053298991705877
1.2,1.0038357128644915
1.205,1.0023472249317877
1.21,1.0011883368105865
1.215,1.000656660799157
1.22,1.0009505396444551
1.225,1.0021100590798104
1.23,1.0039884446529959
1.235,1.0062645166415427
1.24,1.008497696614063
1.245,1.0102164935772617
1.25,1.0110221274085598
1.2550000000000001,1.0106835614695675
1.26,1.0092004762130151
1.2650000000000001,1.0068169916207144
1.27,1.0039800080585455
1.2750000000000001,1.00124928318817
1.28,0.9991784640742877
1.285,0.9981940609649316
1.29,0.9985006198586198
1.295,1.0000346145170682
1.3,1.0024781618598042
1.305,1.0053294094086362
1.31,1.0080129582987953
1.315,1.0100043796764673
1.32,1.0109400541079492
1.325,1.0106877991875969
1.33,1.0093638007551486
1.335,1.0072945228479422
1.34,1.0049351426713375
1.345,1.0027654704947673
1.35,1.0011881491498609
1.355,1.0004516040880076
1.36,1.0006127463790089
1.365,1.0015440474988777
1.37,1.0029790803425362
1.375,1.004582513050509
1.3800000000000001,1.0060265566256381
1.385,1.0070565087592591
1.3900000000000001,1.0075326113069958
1.395,1.007442371201097
1.4000000000000001,1.0068848329570306
1.405,1.0060342494221652
1.41,1.005093980252348
1.415,1.004251861164865
1.42,1.0036461138535493
1.425,1.0033470446369912
1.43,1.0033554772026283
1.435,1.0036151510110876
1.44,1.0040339206167945
1.445,1.0045077887719276
1.45,1.0049424467435233
1.455,1.00526862706778
1.46,1.0054496188078108
1.465,1.005481215067885
1.47,1.0053857763209577
1.475,1.0052028277882672
1.48,1.0049786854047729
1.485,1.0047571804172686
1.49,1.0045728475669762
1.495,1.004447171155805
1.5,1.0043878111903752
1.5050000000000001,1.0043902522777826
1.51,1.004441058650662
1.5150000000000001,1.0045218584810989
1.52,1.0046132715003777
1.5250000000000001,1.004698179943305
1.53,1.0047639724677686
1.5350000000000001,1.004803622507517
1.54,1.0048156660861567
1.545,1.0048032990173748
1.55,1.0047729080227976
1.555,1.0047323813160816
1.56,1.0046895165049978
1.565,1.0046507696975564
1.57,1.0046204877278415
1.575,1.004600656488724
1.58,1.0045911024765968
1.585,1.0045900170895798
1.59,1.004594641924942
1.595,1.0046019580834302
1.6,1.0046092559763264
1.605,1.0046145123997483
1.61,1.0046165553421833
1.615,1.0046150424351084
1.62,1.0046103083254345
1.625,1.0046031466036944
1.6300000000000001,1.0045945849957054
1.635,1.0045856935838082
1.6400000000000001,1.004577442021399
1.645,1.0045706003493684
1.6500000000000001,1.0045656650563297
1.655,1.0045627908797594
1.6600000000000001,1.004561719750049
1.665,1.0045617180275752
1.67,1.0045615554383112
1.675,1.0045595753565266
1.68,1.004553907296278
1.685,1.0045428515427215
1.69,1.0045254203993117
1.695,1.0045019555257098
1.7,1.0044746701024476
1.705,1.0044479099775545
1.71,1.004427915735262
1.715,1.0044219213776784
1.72,1.004436556929987
1.725,1.0044757229302552
1.73,1.0045383390552869
1.735,1.0046165759390384
1.74,1.0046952816036265
1.745,1.0047532382587316
1.75,1.0047665868301776
1.7550000000000001,1.0047142450981463
1.76,1.0045845014590382
1.7650000000000001,1.004381340946845
1.77,1.0041286500039077
1.7750000000000001,1.0038704466823012
1.78,1.0036658244850665
1.7850000000000001,1.00357838637663
1.79,1.0036614207292816
1.795,1.0039416093340383
1.8,1.0044052254273819
1.805,1.0049911372383655
1.81,1.0055941674004232
1.815,1.0060804131990957
1.82,1.0063132841031797
1.825,1.0061858676057434
1.83,1.0056526192044957
1.835,1.0047521354478892
1.84,1.0036135312326393
1.845,1.0024418691019004
1.85,1.0014827547078469
1.855,1.0009716247003473
1.86,1.0010780418177174
1.865,1.0018580712509586
1.87,1.003227502316854
1.875,1.004964977329479
1.8800000000000001,1.0067475775132375
1.885,1.0082135259264542
1.8900000000000001,1.0090393702707932
1.895,1.0090143099046818
1.9000000000000001,1.0080937073023148
1.905,1.0064177570859125
1.9100000000000001,1.0042890496607426
1.915,1.0021125450007664
1.92,1.0003107988707012
1.925,0.9992336961099858
1.93,0.9990836711410884
1.935,0.999873871004484
1.94,1.0014287775918278
1.945,1.0034264872792504
1.95,1.0054718310952864
1.955,1.0071824003855758
1.96,1.0082671091887945
1.965,1.0085796725338143
1.97,1.0081364046661998
1.975,1.0070970240710504
1.98,1.005716157808412
1.985,1.0042796381832597
1.99,1.003041994608337
1.995,1.0021794839115432
2.0,1.0017675009215068
2.005,1.0017840562943197
2.0100000000000002,1.0021342800897595
2.015,1.0026863680459108
2.02,1.0033080042856433
2.025,1.0038940512835448
2.0300000000000002,1.0043802939238504
2.035,1.0047428291459886
2.04,1.0049868214169104
2.045,1.0051306991048363
2.05,1.0051920146774982
2.055,1.005179412904661
2.06,1.0050922684333221
2.065,1.0049266167105462
2.07,1.0046839397835394
2.075,1.0043787214290119
2.08,1.0040414875576726
2.085,1.0037158752091382
2.09,1.003450432903713
2.095,1.0032876273117712
2.1,1.0032533949860711
2.105,1.0033503465456497
2.11,1.0035565700175826
2.115,1.0038303177950822
2.12,1.0041192294957673
2.125,1.004371607147178
2.13,1.0045468920100165
2.1350000000000002,1.0046229176063377
2.14,1.0045985305857585
2.145,1.004491440930909
2.15,1.0043323214200186
2.1550000000000002,1.0041569376963668
2.16,1.0039983143732285
2.165,1.0038806501103674
2.17,1.0038160366630344
2.1750000000000003,1.0038042338202713
2.18,1.0038350239853027
2.185,1.003892179691935
2.19,1.0039578986844122
2.195,1.0040166776031796
2.2,1.0040579213643464
2.205,1.0040770022499463
2.21,1.0040748751100523
2.215,1.004056638636407
2.22,1.0040295679260178
2.225,1.0040011349732583
2.23,1.0039774179591126
2.235,1.0039621291633951
2.24,1.0039563158075473
2.245,1.0039586460836358
2.25,1.0039661038459669
2.255,1.0039748823648362
2.2600000000000002,1.003981280081615
2.265,1.0039824433209403
2.27,1.0039768560652926
2.275,1.003964532489892
2.2800000000000002,1.0039469164246007
2.285,1.0039265302936198
2.29,1.003906444368457
2.295,1.0038896563800146
2.3000000000000003,1.0038784822567934
2.305,1.0038740604117975
2.31,1.0038760629147165
2.315,1.0038826849635958
2.32,1.0038909478736648
2.325,1.003897300805416
2.33,1.0038984462723217
2.335,1.0038922517765863
2.34,1.003878556703143
2.345,1.0038596552415173
2.35,1.0038402488950762
2.355,1.0038267290694811
2.36,1.0038257755073743
2.365,1.0038424297964847
2.37,1.0038779965892628
2.375,1.0039282926163464
2.38,1.0039828478354649
2.3850000000000002,1.0040256085677326
2.39,1.0040374633226068
2.395,1.0040005109842014
2.4,1.0039034736603483
2.4050000000000002,1.0037471334419021
2.41,1.003548294838628
2.415,1.0033407018302078
2.42,1.0031716905980712
2.4250000000000003,1.0030941677724503
2.43,1.0031546746443263
2.435,1.0033795991467342
2.44,1.003762692013646
2.445,1.0042575593004461
2.45,1.0047784363974868
2.455,1.0052111722960684
2.46,1.0054341016808517
2.465,1.0053457767171792
2.47,1.0048940202891619
2.475,1.0040991895519085
2.48,1.0030645395969737
2.485,1.001968476323778
2.49,1.0010371410859145
2.495,1.000500515695466
2.4995,1.000506785754925
