time,energy
0.0,0.9999999999999999
0.005,0.9967566345389897
0.01,0.9966556165745216
0.015,0.9996844295210537
0.02,1.005192658434022
0.025,1.0120410037947487
0.03,1.0188543978201081
0.035,1.0243188799240346
0.04,1.027453487585587
0.045,1.0277969636009843
0.05,1.0254717749732682
0.055,1.0211184788602816
0.06,1.0157238698227735
0.065,1.0103891166849714
0.07,1.0060941919484727
0.075,1.0035108332716085
0.08,1.002900260428676
0.085,1.0041089099031049
0.09,1.0066518041757264
0.095,1.0098546260401344
0.1,1.0130159934211096
0.105,1.0155520204497854
0.11,1.0170945395491233
0.115,1.0175289337228104
0.12,1.0169731547492964
0.125,1.0157123128478924
0.13,1.014110631640405
0.135,1.0125237160134843
0.14,1.011229790202577
0.145,1.0103908178675978
0.15,1.0100456786302696
0.155,1.0101300852318529
0.16,1.0105131834552197
0.165,1.0110393205011787
0.17,1.0115649330901642
0.17500000000000002,1.0119839085590305
0.18,1.0122388801733204
0.185,1.012319613429259
0.19,1.0122521657474706
0.195,1.012083561518058
0.2,1.0118664439873335
0.20500000000000002,1.0116469575909475
0.21,1.0114575045820886
0.215,1.0113144891053596
0.22,1.0112200413401293
0.225,1.011166145636072
0.23,1.0111395503371814
0.23500000000000001,1.0111261687791966
0.24,1.0111141997627187
0.245,1.011095724293117
0.25,1.0110669486825052
0.255,1.0110275039127719
0.26,1.010979278864618
0.265,1.010925202254893
0.27,1.0108682535286189
0.275,1.0108108323094787
0.28,1.0107544897107408
0.28500000000000003,1.0106999433523145
0.29,1.0106472639375772
0.295,1.0105961251947684
0.3,1.0105460359448508
0.305,1.0104965083025923
0.31,1.0104471485386997
0.315,1.0103976808391162
0.32,1.0103479273880462
0.325,1.0102977720615691
0.33,1.0102471319665374
0.335,1.0101959534777292
0.34,1.010144239076994
0.34500000000000003,1.0100920994159812
0.35000000000000003,1.0100398128727088
0.355,1.0099878644109326
0.36,1.009936929813468
0.365,1.0098877742025558
0.37,1.0098410488024743
0.375,1.0097969987502293
0.38,1.0097551349511955
0.385,1.0097139663664405
0.39,1.009670921709468
0.395,1.0096225935583483
0.4,1.0095653965663303
0.405,1.0094966358665018
0.41000000000000003,1.0094158383203489
0.41500000000000004,1.009326035038905
0.42,1.0092345465309718
0.425,1.0091527730766328
0.43,1.0090945908127276
0.435,1.0090732316285298
0.44,1.0090969670098946
0.445,1.0091644432279343
0.45,1.0092609856229264
0.455,1.0093574221763366
0.46,1.0094127987272556
0.465,1.009381669372686
0.47000000000000003,1.0092254784882975
0.47500000000000003,1.008926109410523
0.48,1.0084983264852911
0.485,1.0079970456578295
0.49,1.007515571674851
0.495,1.0071723951501386
0.5,1.0070867867343205
0.505,1.007346796489068
0.51,1.0079765366477766
0.515,1.0089117650319528
0.52,1.0099928364164694
0.525,1.0109814883525365
0.53,1.0116027894578463
0.535,1.011606819326223
0.54,1.0108378938735467
0.545,1.0092943835659873
0.55,1.0071612072118996
0.555,1.0048009696582936
0.56,1.00269826345486
0.5650000000000001,1.0013632801228287
0.5700000000000001,1.0012128051018048
0.5750000000000001,1.002455582308892
0.58,1.0050119612496629
0.585,1.0084929945690226
0.59,1.0122520068959604
0.595,1.0155045132638976
0.6,1.017494333447569
0.605,1.0176696405540822
0.61,1.015826709926637
0.615,1.0121836464760527
0.62,1.0073610192959792
0.625,1.0022679665052256
0.63,0.9979156750357815
0.635,0.9951991384671841
0.64,0.994697567905883
0.645,0.9965409366400074
0.65,1.0003752521265494
0.655,1.0054358446823737
0.66,1.0107121084881578
0.665,1.0151653193017192
0.67,1.0179489205263288
0.675,1.018581007194442
0.68,1.0170313217123528
0.685,1.0137064167929097
0.6900000000000001,1.009341100944845
0.6950000000000001,1.004825640740402
0.7000000000000001,1.0010113174563768
0.705,0.9985390682394214
0.71,0.9977272897645597
0.715,0.9985383640414245
0.72,1.000623755406991
0.725,1.003429702226909
0.73,1.006333722265817
0.735,1.0087785885061
0.74,1.0103750475395974
0.745,1.0109552630146326
0.75,1.010572438810678
0.755,1.0094547283016886
0.76,1.007930474719538
0.765,1.0063454842625956
0.77,1.0049913643727597
0.775,1.0040582237997757
0.78,1.003617267960026
0.785,1.0036312132301997
0.79,1.0039847418269725
0.795,1.0045243946153304
0.8,1.0050974439995026
0.805,1.0055817635243403
0.81,1.005902448706033
0.8150000000000001,1.0060348026583932
0.8200000000000001,1.0059963588943357
0.8250000000000001,1.0058323491475585
0.8300000000000001,1.0055993492452462
0.835,1.0053510199043973
0.84,1.0051283758404725
0.845,1.004955378955984
0.85,1.0048392771747616
0.855,1.0047742447803965
0.86,1.0047465815661092
0.865,1.0047399051526569
0.87,1.0047392454730821
0.875,1.0047335257821763
0.88,1.0047164280153238
0.885,1.004685992822977
0.89,1.004643465480905
0.895,1.0045918923161947
0.9,1.0045348543480748
0.905,1.004475559722597
0.91,1.004416358378428
0.915,1.0043586255121941
0.92,1.004302897584366
0.925,1.0042491312966257
0.93,1.0041969774527046
0.935,1.00414600014024
0.9400000000000001,1.0040958118926153
0.9450000000000001,1.004046127346302
0.9500000000000001,1.0039967571404556
0.9550000000000001,1.0039475707982486
0.96,1.003898455192624
0.965,1.0038492878510064
0.97,1.003799935134476
0.975,1.0037502763494461
0.98,1.0037002470373868
0.985,1.0036498882869787
0.99,1.0035993841771056
0.995,1.0035490672000622
1.0,1.003499373262594
1.0050000000000001,1.0034507354889308
1.01,1.0034034208585476
1.0150000000000001,1.0033573352036984
1.02,1.0033118468129487
1.025,1.003265699904925
1.03,1.003217096820548
1.035,1.0031640116448954
1.04,1.0031047509906224
1.045,1.0030387003812684
1.05,1.002967099087348
1.055,1.0028935972810487
1.06,1.0028243018777498
1.065,1.0027670482648454
1.07,1.0027297704668476
1.075,1.0027180832315525
1.08,1.0027325003069647
1.085,1.0027660179394076
1.09,1.0028029852154208
1.095,1.002820151792934
1.1,1.0027904489019486
1.105,1.0026894131648663
1.11,1.0025032988504172
1.115,1.0022370445418503
1.12,1.0019196447959144
1.125,1.001604416790559
1.1300000000000001,1.0013623534804945
1.135,1.0012682457440938
1.1400000000000001,1.0013813173251425
1.145,1.0017242784758364
1.1500000000000001,1.0022663256401214
1.155,1.0029160405154036
1.16,1.0035289116751218
1.165,1.0039312485719962
1.17,1.003958030919602
1.175,1.0034976891622578
1.18,1.0025332213283522
1.185,1.0011676956637567
1.19,0.9996239491185495
1.195,0.9982133007379751
1.2,0.9972755468318407
1.205,0.9971007070299198
1.21,0.9978497375411415
1.215,0.9994945588035455
1.22,1.00179579925014
1.225,1.0043294179651583
1.23,1.0065621067105934
1.235,1.007962673509769
1.24,1.0081257931885097
1.245,1.0068787470549638
1.25,1.004343160326869
1.2550000000000001,1.0009325927268073
1.26,0.9972814173616431
1.2650000000000001,0.9941172897711874
1.27,0.9921043420956202
1.2750000000000001,0.9916929950920335
1.28,0.9930123448541813
1.285,0.9958320536295058
1.29,0.9996045787479027
1.295,1.0035793790360321
1.3,1.0069633206731181
1.305,1.0090903369422797
1.31,1.0095613336521678
1.315,1.0083228419710368
1.32,1.0056679770669839
1.325,1.002161924426124
1.33,0.998511683746411
1.335,0.9954118526185343
1.34,0.9934021033423917
1.345,0.9927671845451821
1.35,0.9934984783772715
1.355,0.9953207186278547
1.36,0.9977724390276664
1.365,1.000317664337963
1.37,1.0024615637544787
1.375,1.0038447754498878
1.3800000000000001,1.0042986830841663
1.385,1.0038546512091586
1.3900000000000001,1.0027112018377835
1.395,1.0011717428588622
1.4000000000000001,0.9995700579026484
1.405,0.9982008568869176
1.41,0.9972689311464779
1.415,0.9968643256583073
1.42,0.9969642184079589
1.425,0.9974564983412094
1.43,0.9981764449448471
1.435,0.9989468304898739
1.44,0.9996129363062345
1.445,1.0000666845740447
1.45,1.000257429657049
1.455,1.0001900795155532
1.46,0.9999135206894092
1.465,0.9995035145284011
1.47,0.9990443397068717
1.475,0.9986127220632548
1.48,0.9982663730287463
1.485,0.9980381107743889
1.49,0.9979353482216331
1.495,0.9979438729171755
1.5,0.9980343775164008
1.5050000000000001,0.9981701000947133
1.51,0.998314120011462
1.5150000000000001,0.9984352246287614
1.52,0.9985117137837078
1.5250000000000001,0.9985329576099994
1.53,0.9984989062924459
1.5350000000000001,0.9984180277139298
1.54,0.9983043021604051
1.545,0.9981739327123458
1.55,0.9980423522634548
1.555,0.9979219523659296
1.56,0.9978207620272251
1.565,0.9977421045693049
1.57,0.9976850915398329
1.575,0.9976456983915861
1.58,0.9976181180682713
1.585,0.9975961030330204
1.59,0.997574069665606
1.595,0.9975478304230506
1.6,0.9975149160649349
1.605,0.9974745330190156
1.61,0.9974272564986149
1.615,0.9973745831110092
1.62,0.9973184597598485
1.625,0.9972608766414409
1.6300000000000001,0.997203572095975
1.635,0.9971478573677385
1.6400000000000001,0.997094539383015
1.645,0.9970439053801671
1.6500000000000001,0.9969957361803365
1.655,0.9969493321442147
1.6600000000000001,0.9969035605448647
1.665,0.9968569555822101
1.67,0.9968079121540541
1.675,0.9967550031988008
1.68,0.9966974142446301
1.685,0.9966354317683712
1.69,0.9965708574390647
1.695,0.9965071701930895
1.7,0.9964492487315846
1.705,0.9964025218217364
1.71,0.9963715433552116
1.715,0.9963581818952305
1.72,0.9963598310894051
1.725,0.9963682228661179
1.73,0.9963694814938663
1.735,0.9963459240452421
1.74,0.9962797592674862
1.745,0.9961582929740703
1.75,0.9959796210264693
1.7550000000000001,0.9957572561646386
1.76,0.9955219006844575
1.7650000000000001,0.9953188252460331
1.77,0.9952001300873486
1.7750000000000001,0.9952124761632283
1.78,0.9953824235348365
1.7850000000000001,0.9957028892384706
1.79,0.9961249552221609
1.795,0.9965589062494226
1.8,0.9968867677071874
1.805,0.9969858975680557
1.81,0.9967599032794694
1.815,0.9961701509669115
1.82,0.9952593759373892
1.825,0.9941591963439556
1.83,0.9930760372384247
1.835,0.9922548000491395
1.84,0.9919255790477942
1.845,0.9922443215837471
1.85,0.993241879338741
1.855,0.9947960443794007
1.86,0.996637321583503
1.865,0.9983918425182787
1.87,0.9996555404151763
1.875,1.0000848125207689
1.8800000000000001,0.9994829035124805
1.885,0.9978601255218326
1.8900000000000001,0.9954505926557192
1.895,0.9926776791042324
1.9000000000000001,0.9900727476186724
1.905,0.9881637273693185
1.9100000000000001,0.9873586042866382
1.915,0.98785136282911
1.92,0.9895734478408151
1.925,0.9922033186668054
1.93,0.9952327349003521
1.935,0.9980746281403482
1.94,1.000187376045999
1.945,1.001186617169443
1.95,1.000919326824672
1.955,0.9994846603828232
1.96,0.997199368466462
1.965,0.9945188465635467
1.97,0.9919346915517905
1.975,0.9898736672253776
1.98,0.9886205649174237
1.985,0.9882796776940009
1.99,0.9887789297769877
1.995,0.9899101401006373
2.0,0.9913911745400011
2.005,0.9929325522424549
2.0100000000000002,0.9942927110397901
2.015,0.9953115531371373
2.02,0.9959191258651379
2.025,0.996123131415344
2.0300000000000002,0.995983597741728
2.035,0.9955845458031756
2.04,0.9950109511252423
2.045,0.99433568067065
2.05,0.9936168151044511
2.055,0.9929022453562688
2.06,0.9922366242187411
2.065,0.9916659508863847
2.07,0.9912368933977385
2.075,0.9909905741856416
2.08,0.9909529800423695
2.085,0.9911256139719029
2.09,0.9914800932532144
2.095,0.991959204083521
2.1,0.9924849309002398
2.105,0.9929718707919939
2.11,0.993342873281927
2.115,0.9935431434222392
2.12,0.993549516496051
2.125,0.9933729415160361
2.13,0.9930539633702261
2.1350000000000002,0.9926526638465286
2.14,0.99223568238992
2.145,0.9918633467642939
2.15,0.991579586857271
2.1550000000000002,0.991406365941286
2.16,0.9913431489887835
2.165,0.9913707673727846
2.17,0.9914581992878715
2.1750000000000003,0.9915704101520997
2.18,0.9916754951199944
2.185,0.9917498304634015
2.19,0.9917805988526098
2.195,0.9917657204759646
2.2,0.9917117475043291
2.205,0.9916305772511915
2.21,0.9915358934662599
2.215,0.9914400979486225
2.22,0.9913522236208856
2.225,0.9912770118089667
2.23,0.9912150641428689
2.235,0.9911637903627117
2.24,0.9911187846206465
2.245,0.9910752663065884
2.25,0.9910292921646874
2.255,0.9909785533161583
2.2600000000000002,0.9909226847085937
2.265,0.9908631138687484
2.27,0.9908025483770859
2.275,0.9907442434419628
2.2800000000000002,0.9906912046646987
2.285,0.9906454721598715
2.29,0.9906076070621116
2.295,0.9905764657384153
2.3000000000000003,0.9905493048140125
2.305,0.9905222140034855
2.31,0.9904908255221417
2.315,0.9904512007006817
2.32,0.9904007502027962
2.325,0.9903390106279532
2.33,0.9902680870704754
2.335,0.9901925901795617
2.34,0.9901189581359847
2.345,0.9900541635396214
2.35,0.990003955731545
2.355,0.9899709576427311
2.36,0.989953082790189
2.365,0.9899428102106457
2.37,0.9899278003537444
2.375,0.9898931183011123
2.38,0.9898249545844003
2.3850000000000002,0.9897152533180004
2.39,0.9895661827677174
2.395,0.989393065416047
2.4,0.9892243785806598
2.4050000000000002,0.989097853148032
2.41,0.9890525498269245
2.415,0.9891179571604114
2.42,0.9893023714167397
2.4250000000000003,0.9895837248673928
2.43,0.9899062533335825
2.435,0.9901856682947255
2.44,0.9903237757901201
2.445,0.9902310128291097
2.45,0.9898526978894044
2.455,0.9891926626408498
2.46,0.9883271125742453
2.465,0.98740260506778
2.47,0.9866150516467294
2.475,0.9861712003555567
2.48,0.9862391423200493
2.485,0.9868986664898836
2.49,0.9881043911878596
2.495,0.989673545916673
2.4995,0.9911499789585658
